4.2K Nb4Ta_D1_1.01mm_210C_48h_410C_50h_670C_48h 11-14-2019
11:27 AM, Thursday, November 14, 2019
File Description: l=4.75mm;d=1.1mm
Vibration Amplitude [mm]: 1.500
Calibrated at 1.5mm; Data apporpriately scaled for reduced amplitude
Vibration Frequency [Hz]: 55.00
Helium Level [%]: 75.0
Center [mm]: 14.26
Operator Name: Nawaraj

Time [ms]	Field [T]	Moment [emu]	Temp [K]	dMoment [emu]	Kramer
50.00000000	-1.99840000	0.10073207	4.16800000	0.00046170	0.02554762
550.00000000	-1.99340000	0.10046704	4.16800000	0.00087360	0.03512011
1050.00000000	-1.98850000	0.09963039	4.16800000	0.00184912	0.05106393
1550.00000000	-1.98350000	0.09662583	4.16800000	0.00503407	0.08420111
2050.00000000	-1.97840000	0.09074682	4.16800000	0.01111677	0.12504541
2550.00000000	-1.97340000	0.08310050	4.16800000	0.01894070	0.16311795
3050.00000000	-1.96850000	0.07504880	4.16800000	0.02717277	0.19525439
3551.00000000	-1.96340000	0.06764666	4.16800000	0.03478777	0.22078294
4051.00000000	-1.95840000	0.06126356	4.16800000	0.04138089	0.24064413
4552.00000000	-1.95340000	0.05576935	4.16800000	0.04705993	0.25646224
5052.00000000	-1.94830000	0.05091442	4.16800000	0.05208199	0.26962350
5552.00000000	-1.94340000	0.04665727	4.16900000	0.05650226	0.28065544
6053.00000000	-1.93840000	0.04259769	4.16900000	0.06073419	0.29078867
6554.00000000	-1.93340000	0.03871465	4.16900000	0.06482248	0.30022250
7054.00000000	-1.92850000	0.03510985	4.16900000	0.06865077	0.30876469
7554.00000000	-1.92340000	0.03146607	4.16900000	0.07250676	0.31710759
8054.00000000	-1.91840000	0.02797042	4.16900000	0.07621218	0.32489796
8554.00000000	-1.91340000	0.02466451	4.16900000	0.07970323	0.33203922
9055.00000000	-1.90830000	0.02148334	4.16900000	0.08309803	0.33881064
9555.00000000	-1.90340000	0.01848402	4.16800000	0.08631814	0.34509093
10055.00000000	-1.89840000	0.01570183	4.16800000	0.08927237	0.35071591
10555.00000000	-1.89340000	0.01288715	4.16800000	0.09228736	0.35635405
11055.00000000	-1.88830000	0.01019196	4.16800000	0.09520018	0.36169010
11555.00000000	-1.88340000	0.00769367	4.16800000	0.09792304	0.36658787
12055.00000000	-1.87820000	0.00514211	4.16800000	0.10071292	0.37151646
12555.00000000	-1.87340000	0.00274325	4.16800000	0.10330553	0.37602733
13055.00000000	-1.86830000	0.00046262	4.16800000	0.10582006	0.38031693
13556.00000000	-1.86340000	-0.00178779	4.16800000	0.10825556	0.38441616
14056.00000000	-1.85840000	-0.00372063	4.16800000	0.11039947	0.38794333
14556.00000000	-1.85330000	-0.00615996	4.16800000	0.11304463	0.39229376
15056.00000000	-1.84830000	-0.00829274	4.16800000	0.11541063	0.39611020
15556.00000000	-1.84340000	-0.01033946	4.16800000	0.11768068	0.39972147
16056.00000000	-1.83840000	-0.01230565	4.16700000	0.11985793	0.40312839
16557.00000000	-1.83340000	-0.01417884	4.16700000	0.12193227	0.40632509
17057.00000000	-1.82830000	-0.01609038	4.16700000	0.12408002	0.40960268
17557.00000000	-1.82340000	-0.01793564	4.16700000	0.12612792	0.41269205
18057.00000000	-1.81840000	-0.01973286	4.16700000	0.12811701	0.41564806
18558.00000000	-1.81330000	-0.02148723	4.16700000	0.13007717	0.41852168
19058.00000000	-1.80830000	-0.02318961	4.16700000	0.13201050	0.42132949
19558.00000000	-1.80340000	-0.02483347	4.16700000	0.13386013	0.42398319
20058.00000000	-1.79840000	-0.02645648	4.16700000	0.13571502	0.42661442
20558.00000000	-1.79330000	-0.02805620	4.16700000	0.13754131	0.42917045
21058.00000000	-1.78830000	-0.02958437	4.16700000	0.13932189	0.43163809
21558.00000000	-1.78330000	-0.03114640	4.16800000	0.14111488	0.43410272
22059.00000000	-1.77840000	-0.03268759	4.16800000	0.14290106	0.43654104
22560.00000000	-1.77330000	-0.03416378	4.16900000	0.14458308	0.43878754
23060.00000000	-1.76830000	-0.03560884	4.17000000	0.14625966	0.44101287
23561.00000000	-1.76330000	-0.03703570	4.17200000	0.14789725	0.44316108
24061.00000000	-1.75840000	-0.03844430	4.17300000	0.14954482	0.44531272
24562.00000000	-1.75330000	-0.03983737	4.17400000	0.15117037	0.44740146
25062.00000000	-1.74830000	-0.04120707	4.17500000	0.15275177	0.44941454
25563.00000000	-1.74330000	-0.04256111	4.17600000	0.15431659	0.45138731
26063.00000000	-1.73840000	-0.04388414	4.17600000	0.15588003	0.45334900
26563.00000000	-1.73330000	-0.04518625	4.17600000	0.15743679	0.45527264
27063.00000000	-1.72830000	-0.04647018	4.17500000	0.15897312	0.45715833
27564.00000000	-1.72330000	-0.04772283	4.17500000	0.16045428	0.45895054
28064.00000000	-1.71820000	-0.04894960	4.17400000	0.16190970	0.46068584
28564.00000000	-1.71330000	-0.05013991	4.17400000	0.16332588	0.46236597
29064.00000000	-1.70830000	-0.05131987	4.17400000	0.16475629	0.46404707
29564.00000000	-1.70330000	-0.05251536	4.17400000	0.16615637	0.46567325
30064.00000000	-1.69840000	-0.05369790	4.17300000	0.16754256	0.46727503
30564.00000000	-1.69330000	-0.05487009	4.17300000	0.16892826	0.46885076
31064.00000000	-1.68830000	-0.05602920	4.17300000	0.17031889	0.47042871
31564.00000000	-1.68330000	-0.05715200	4.17300000	0.17165076	0.47191442
32064.00000000	-1.67820000	-0.05820714	4.17200000	0.17293456	0.47331669
32565.00000000	-1.67330000	-0.05926235	4.17200000	0.17421564	0.47471945
33065.00000000	-1.66830000	-0.06032792	4.17200000	0.17553491	0.47615712
33566.00000000	-1.66330000	-0.06138830	4.17200000	0.17684318	0.47756974
34067.00000000	-1.65820000	-0.06244351	4.17200000	0.17819349	0.47902165
34568.00000000	-1.65330000	-0.06347788	4.17200000	0.17949321	0.48040988
35068.00000000	-1.64830000	-0.06450188	4.17200000	0.18079006	0.48177730
35568.00000000	-1.64330000	-0.06549468	4.17200000	0.18203015	0.48305978
36068.00000000	-1.63820000	-0.06647195	4.17200000	0.18330480	0.48437158
36568.00000000	-1.63330000	-0.06743873	4.17200000	0.18455703	0.48565939
37068.00000000	-1.62830000	-0.06840537	4.17200000	0.18581634	0.48694011
37569.00000000	-1.62320000	-0.06936737	4.17200000	0.18702313	0.48813582
38070.00000000	-1.61820000	-0.07032393	4.17200000	0.18816869	0.48925100
38570.00000000	-1.61310000	-0.07126414	4.17200000	0.18932451	0.49036419
39070.00000000	-1.60830000	-0.07214779	4.17200000	0.19044329	0.49144464
39570.00000000	-1.60330000	-0.07304235	4.17200000	0.19159264	0.49254182
40070.00000000	-1.59820000	-0.07393078	4.17300000	0.19273710	0.49361738
40570.00000000	-1.59330000	-0.07481443	4.17300000	0.19388547	0.49470582
41070.00000000	-1.58830000	-0.07571376	4.17400000	0.19504976	0.49579923
41570.00000000	-1.58320000	-0.07661308	4.17400000	0.19623017	0.49689752
42071.00000000	-1.57820000	-0.07748107	4.17400000	0.19736694	0.49794080
42571.00000000	-1.57330000	-0.07832862	4.17500000	0.19845857	0.49892793
43071.00000000	-1.56830000	-0.07915504	4.17500000	0.19953073	0.49987587
43571.00000000	-1.56320000	-0.07999714	4.17500000	0.20065553	0.50087483
44072.00000000	-1.55820000	-0.08082902	4.17500000	0.20177833	0.50187211
44572.00000000	-1.55330000	-0.08164999	4.17500000	0.20288166	0.50284627
45072.00000000	-1.54830000	-0.08244031	4.17600000	0.20391662	0.50372104
45572.00000000	-1.54320000	-0.08323540	4.17600000	0.20495064	0.50458018
46072.00000000	-1.53820000	-0.08400460	4.17600000	0.20597314	0.50542707
46572.00000000	-1.53330000	-0.08479491	4.17600000	0.20704822	0.50634035
47072.00000000	-1.52830000	-0.08559068	4.17600000	0.20812967	0.50724660
47572.00000000	-1.52320000	-0.08638577	4.17600000	0.20922375	0.50815326
48072.00000000	-1.51820000	-0.08715496	4.17600000	0.21024031	0.50896772
48572.00000000	-1.51330000	-0.08791939	4.17600000	0.21122652	0.50974794
49072.00000000	-1.50830000	-0.08866747	4.17600000	0.21224613	0.51055416
49573.00000000	-1.50320000	-0.08938488	4.17600000	0.21326423	0.51134404
50073.00000000	-1.49820000	-0.09008118	4.17600000	0.21423101	0.51207504
50573.00000000	-1.49330000	-0.09078838	4.17600000	0.21520047	0.51281223
51073.00000000	-1.48830000	-0.09150580	4.17600000	0.21614374	0.51350414
51573.00000000	-1.48320000	-0.09222798	4.17600000	0.21714700	0.51425302
52074.00000000	-1.47820000	-0.09297674	4.17700000	0.21816582	0.51502303
52574.00000000	-1.47330000	-0.09371460	4.17700000	0.21916418	0.51577179
53074.00000000	-1.46830000	-0.09443201	4.17700000	0.22016297	0.51650656
53574.00000000	-1.46320000	-0.09511332	4.17700000	0.22113402	0.51719427
54074.00000000	-1.45820000	-0.09576806	4.17700000	0.22205881	0.51783128
54574.00000000	-1.45330000	-0.09643847	4.17700000	0.22299096	0.51848053
55074.00000000	-1.44810000	-0.09710410	4.17600000	0.22397991	0.51916352
55574.00000000	-1.44320000	-0.09777451	4.17600000	0.22494245	0.51983718
56074.00000000	-1.43820000	-0.09842448	4.17600000	0.22590391	0.52049516
56574.00000000	-1.43330000	-0.09906900	4.17600000	0.22684703	0.52113570
57074.00000000	-1.42830000	-0.09970806	4.17600000	0.22777516	0.52174470
57574.00000000	-1.42320000	-0.10037370	4.17600000	0.22867217	0.52230375
58074.00000000	-1.41820000	-0.10103866	4.17600000	0.22954183	0.52283577
58574.00000000	-1.41330000	-0.10168863	4.17700000	0.23040191	0.52336132
59074.00000000	-1.40830000	-0.10231202	4.17700000	0.23129513	0.52391042
59574.00000000	-1.40320000	-0.10293610	4.17700000	0.23219233	0.52444969
60075.00000000	-1.39810000	-0.10356495	4.17700000	0.23305190	0.52494147
60575.00000000	-1.39330000	-0.10418903	4.17800000	0.23392004	0.52546631
61075.00000000	-1.38810000	-0.10482809	4.17800000	0.23481517	0.52597883
61575.00000000	-1.38320000	-0.10545694	4.17900000	0.23564560	0.52644246
62076.00000000	-1.37820000	-0.10605990	4.18000000	0.23641433	0.52682329
62576.00000000	-1.37330000	-0.10667307	4.18000000	0.23725644	0.52729100
63077.00000000	-1.36810000	-0.10728693	4.18000000	0.23813192	0.52776218
63577.00000000	-1.36320000	-0.10788444	4.18000000	0.23899355	0.52824207
64077.00000000	-1.35820000	-0.10847173	4.18100000	0.23984475	0.52869602
64577.00000000	-1.35330000	-0.10908491	4.18100000	0.24068581	0.52914387
65077.00000000	-1.34810000	-0.10976076	4.18100000	0.24157615	0.52961168
65577.00000000	-1.34320000	-0.11038484	4.18000000	0.24238237	0.53001198
66077.00000000	-1.33820000	-0.11096668	4.18000000	0.24312915	0.53033315
66578.00000000	-1.33310000	-0.11150764	4.18000000	0.24388938	0.53065483
67079.00000000	-1.32810000	-0.11206903	4.18000000	0.24470013	0.53103702
67579.00000000	-1.32320000	-0.11263043	4.17900000	0.24550317	0.53141636
68080.00000000	-1.31820000	-0.11321227	4.17900000	0.24628823	0.53176182
68580.00000000	-1.31310000	-0.11377367	4.17800000	0.24704596	0.53206333
69080.00000000	-1.30810000	-0.11431463	4.17700000	0.24779279	0.53235896
69580.00000000	-1.30320000	-0.11483446	4.17700000	0.24849194	0.53260952
70081.00000000	-1.29820000	-0.11539586	4.17700000	0.24921888	0.53287564
70581.00000000	-1.29310000	-0.11595658	4.17700000	0.24992942	0.53310986
71081.00000000	-1.28810000	-0.11651798	4.17600000	0.25061530	0.53332407
71582.00000000	-1.28320000	-0.11707937	4.17600000	0.25129492	0.53353811
72082.00000000	-1.27820000	-0.11764077	4.17600000	0.25193867	0.53369990
72582.00000000	-1.27310000	-0.11818173	4.17400000	0.25254935	0.53381252
73082.00000000	-1.26810000	-0.11870157	4.17300000	0.25318936	0.53396292
73583.00000000	-1.26320000	-0.11922141	4.17200000	0.25383378	0.53412479
74084.00000000	-1.25820000	-0.11974124	4.17100000	0.25447584	0.53426989
74584.00000000	-1.25310000	-0.12028152	4.17100000	0.25508060	0.53436148
75084.00000000	-1.24810000	-0.12078092	4.17100000	0.25564092	0.53441364
75584.00000000	-1.24320000	-0.12132120	4.17000000	0.25622282	0.53449563
76084.00000000	-1.23800000	-0.12186147	4.17000000	0.25684801	0.53458684
76584.00000000	-1.23310000	-0.12244399	4.17100000	0.25749449	0.53472876
77084.00000000	-1.22810000	-0.12300539	4.17100000	0.25813431	0.53484914
77584.00000000	-1.22320000	-0.12354567	4.17000000	0.25871527	0.53491576
78084.00000000	-1.21800000	-0.12404507	4.17000000	0.25923429	0.53488207
78585.00000000	-1.21310000	-0.12454378	4.17000000	0.25973300	0.53485705
79086.00000000	-1.20810000	-0.12504318	4.17000000	0.26023071	0.53481674
79587.00000000	-1.20300000	-0.12554190	4.17000000	0.26068624	0.53471881
80088.00000000	-1.19800000	-0.12604130	4.17100000	0.26114234	0.53462941
80589.00000000	-1.19310000	-0.12654002	4.17100000	0.26157930	0.53452854
81089.00000000	-1.18810000	-0.12703873	4.17300000	0.26201590	0.53441307
81589.00000000	-1.18300000	-0.12755857	4.17400000	0.26242578	0.53425603
82090.00000000	-1.17800000	-0.12807841	4.17500000	0.26281907	0.53409038
82590.00000000	-1.17310000	-0.12857781	4.17500000	0.26317078	0.53389099
83090.00000000	-1.16810000	-0.12909765	4.17600000	0.26351002	0.53366482
83590.00000000	-1.16300000	-0.12961748	4.17700000	0.26383353	0.53340848
84090.00000000	-1.15800000	-0.13011620	4.17700000	0.26412317	0.53312664
84590.00000000	-1.15310000	-0.13065648	4.17700000	0.26444229	0.53288341
85090.00000000	-1.14810000	-0.13119744	4.17700000	0.26471171	0.53257590
85590.00000000	-1.14300000	-0.13169616	4.17700000	0.26490691	0.53217957
86091.00000000	-1.13800000	-0.13215399	4.17700000	0.26505846	0.53174866
86592.00000000	-1.13310000	-0.13263227	4.17700000	0.26522762	0.53134480
87093.00000000	-1.12800000	-0.13310987	4.17700000	0.26529912	0.53081744
87593.00000000	-1.12300000	-0.13360927	4.17700000	0.26535103	0.53028010
88093.00000000	-1.11800000	-0.13414955	4.17700000	0.26541939	0.52975709
88593.00000000	-1.11310000	-0.13466938	4.17800000	0.26542877	0.52918502
89093.00000000	-1.10800000	-0.13516878	4.17800000	0.26535231	0.52850168
89593.00000000	-1.10300000	-0.13564706	4.17800000	0.26521394	0.52776678
90093.00000000	-1.09800000	-0.13614578	4.17800000	0.26507096	0.52702554
90593.00000000	-1.09310000	-0.13666562	4.17800000	0.26483080	0.52619803
91093.00000000	-1.08800000	-0.13718545	4.17800000	0.26461002	0.52536406
91593.00000000	-1.08300000	-0.13768417	4.17800000	0.26425666	0.52440894
92093.00000000	-1.07800000	-0.13820401	4.17800000	0.26387461	0.52342383
92593.00000000	-1.07310000	-0.13868229	4.17800000	0.26338980	0.52234751
93094.00000000	-1.06800000	-0.13914013	4.17800000	0.26271491	0.52105693
93594.00000000	-1.06300000	-0.13961772	4.17900000	0.26193298	0.51967091
94094.00000000	-1.05800000	-0.14013756	4.17900000	0.26109598	0.51822875
94594.00000000	-1.05310000	-0.14063696	4.18000000	0.26008524	0.51662481
95095.00000000	-1.04800000	-0.14115680	4.18000000	0.25900324	0.51492375
95595.00000000	-1.04300000	-0.14169708	4.18100000	0.25854909	0.51385736
96095.00000000	-1.03800000	-0.14221691	4.18100000	0.26050900	0.51518203
96595.00000000	-1.03310000	-0.14271631	4.18100000	0.26869221	0.52259244
97096.00000000	-1.02800000	-0.14321503	4.18100000	0.28812183	0.54048838
97596.00000000	-1.02300000	-0.14373487	4.18200000	0.30509540	0.55550342
98098.00000000	-1.01800000	-0.14423358	4.18200000	0.30646309	0.55606560
98598.00000000	-1.01290000	-0.14469142	4.18200000	0.30745111	0.55626236
99098.00000000	-1.00800000	-0.14516970	4.18200000	0.30844138	0.55648243
99598.00000000	-1.00300000	-0.14566842	4.18200000	0.30951442	0.55675699
100099.00000000	-0.99800000	-0.14616782	4.18300000	0.31060194	0.55703786
100599.00000000	-0.99290000	-0.14668698	4.18300000	0.31167451	0.55728457
101099.00000000	-0.98800000	-0.14724837	4.18400000	0.31278417	0.55758569
101600.00000000	-0.98300000	-0.14780977	4.18400000	0.31387486	0.55784898
102100.00000000	-0.97790000	-0.14835073	4.18500000	0.31494544	0.55807334
102601.00000000	-0.97290000	-0.14884945	4.18500000	0.31595457	0.55825082
103101.00000000	-0.96800000	-0.14934885	4.18500000	0.31696524	0.55843761
103602.00000000	-0.96300000	-0.14986868	4.18500000	0.31803757	0.55865770
104102.00000000	-0.95790000	-0.15040896	4.18500000	0.31919486	0.55893073
104602.00000000	-0.95290000	-0.15090836	4.18500000	0.32032772	0.55918961
105102.00000000	-0.94800000	-0.15142752	4.18500000	0.32143711	0.55943559
105602.00000000	-0.94300000	-0.15198891	4.18500000	0.32258743	0.55969528
106102.00000000	-0.93790000	-0.15252987	4.18500000	0.32365797	0.55986367
106602.00000000	-0.93290000	-0.15302859	4.18500000	0.32466814	0.55998786
107102.00000000	-0.92800000	-0.15354843	4.18500000	0.32571624	0.56015305
107603.00000000	-0.92300000	-0.15410983	4.18500000	0.32679102	0.56031917
108103.00000000	-0.91790000	-0.15467122	4.18400000	0.32796817	0.56055043
108604.00000000	-0.91290000	-0.15519106	4.18400000	0.32910392	0.56075394
109104.00000000	-0.90800000	-0.15571090	4.18400000	0.33023155	0.56095851
109604.00000000	-0.90300000	-0.15629342	4.18400000	0.33138559	0.56116264
110104.00000000	-0.89790000	-0.15687525	4.18400000	0.33256166	0.56136209
110604.00000000	-0.89290000	-0.15741621	4.18400000	0.33369185	0.56153070
111104.00000000	-0.88800000	-0.15793537	4.18400000	0.33473136	0.56163148
111604.00000000	-0.88300000	-0.15849677	4.18400000	0.33585582	0.56178044
112104.00000000	-0.87790000	-0.15905817	4.18400000	0.33703297	0.56194972
112604.00000000	-0.87290000	-0.15966112	4.18400000	0.33824926	0.56215950
113104.00000000	-0.86800000	-0.16026408	4.18400000	0.33943119	0.56234884
113604.00000000	-0.86300000	-0.16084660	4.18400000	0.34059704	0.56250079
114104.00000000	-0.85790000	-0.16138688	4.18400000	0.34175178	0.56261922
114605.00000000	-0.85290000	-0.16192783	4.18400000	0.34288464	0.56272803
115105.00000000	-0.84790000	-0.16248923	4.18400000	0.34401655	0.56282817
115606.00000000	-0.84280000	-0.16305063	4.18400000	0.34515221	0.56290676
116106.00000000	-0.83790000	-0.16359091	4.18400000	0.34626325	0.56299073
116606.00000000	-0.83290000	-0.16419387	4.18400000	0.34745831	0.56311820
117107.00000000	-0.82790000	-0.16481794	4.18500000	0.34869691	0.56327246
117608.00000000	-0.82280000	-0.16544134	4.18500000	0.34993701	0.56340216
118108.00000000	-0.81790000	-0.16606542	4.18500000	0.35117071	0.56355226
118608.00000000	-0.81290000	-0.16666838	4.18500000	0.35236660	0.56364629
119108.00000000	-0.80790000	-0.16727133	4.18500000	0.35360246	0.56376361
119609.00000000	-0.80280000	-0.16787429	4.18500000	0.35479702	0.56382175
120110.00000000	-0.79790000	-0.16847725	4.18500000	0.35594062	0.56386598
120610.00000000	-0.79290000	-0.16334155	4.18500000	0.35138726	0.55936799
121110.00000000	-0.78780000	-0.14720681	4.18500000	0.33585448	0.54598357
121611.00000000	-0.78280000	-0.13866185	4.18500000	0.32784735	0.53857792
122112.00000000	-0.77790000	-0.13718545	4.18500000	0.32687081	0.53693166
122613.00000000	-0.77290000	-0.13855761	4.18500000	0.32876493	0.53761771
123113.00000000	-0.76780000	-0.14063696	4.18500000	0.33142914	0.53889899
123613.00000000	-0.76280000	-0.14275787	4.18500000	0.33413041	0.54020758
124114.00000000	-0.75790000	-0.14477454	4.18500000	0.33672743	0.54142989
124614.00000000	-0.75270000	-0.14674966	4.18500000	0.33926365	0.54253048
125114.00000000	-0.74780000	-0.14853809	4.18500000	0.34157439	0.54348682
125614.00000000	-0.74280000	-0.15022160	4.18500000	0.34381842	0.54435541
126114.00000000	-0.73790000	-0.15182267	4.18500000	0.34595766	0.54514352
126614.00000000	-0.73270000	-0.15338219	4.18500000	0.34806032	0.54583176
127114.00000000	-0.72780000	-0.15487902	4.18500000	0.35009993	0.54651114
127614.00000000	-0.72280000	-0.15635542	4.18500000	0.35216279	0.54717503
128114.00000000	-0.71790000	-0.15781069	4.18500000	0.35423449	0.54784967
128614.00000000	-0.71290000	-0.15922509	4.18700000	0.35620987	0.54841602
129114.00000000	-0.70780000	-0.16061768	4.18800000	0.35816397	0.54893205
129614.00000000	-0.70280000	-0.16201095	4.18900000	0.36010056	0.54943945
130114.00000000	-0.69790000	-0.16336267	4.19000000	0.36201178	0.54993283
130614.00000000	-0.69290000	-0.16469326	4.19000000	0.36392281	0.55039221
131114.00000000	-0.68780000	-0.16598230	4.19000000	0.36574873	0.55075310
131614.00000000	-0.68280000	-0.16725021	4.19000000	0.36749417	0.55105964
132114.00000000	-0.67790000	-0.16673038	4.19000000	0.36743505	0.55002407
132614.00000000	-0.67290000	-0.16600274	4.19000000	0.36720653	0.54883630
133114.00000000	-0.66780000	-0.16668882	4.19000000	0.36841425	0.54869350
133614.00000000	-0.66280000	-0.16806165	4.18900000	0.37032880	0.54908473
